unset key
set xrange [-180: 180]
set yrange [-22.000000:80.000000]
# Autovalores (Niveles de energia * 2I/hb^2)
plot -13.936980 lt -1 lw 2
replot -13.936552 lt -1 lw 2
replot -2.399142 lt -1 lw 2
replot -2.382158 lt -1 lw 2
replot 7.717370 lt -1 lw 2
replot 7.986069 lt -1 lw 2
replot 15.502784 lt -1 lw 2
replot 17.381381 lt -1 lw 2
replot 21.104634 lt -1 lw 2
replot 26.766426 lt -1 lw 2
replot 27.703769 lt -1 lw 2
replot 37.419859 lt -1 lw 2
replot 37.533606 lt -1 lw 2
replot 50.054157 lt -1 lw 2
replot 50.062672 lt -1 lw 2
replot 64.800440 lt -1 lw 2
replot 64.800891 lt -1 lw 2
replot 81.628313 lt -1 lw 2
replot 81.628331 lt -1 lw 2
replot 100.506769 lt -1 lw 2
replot 100.506770 lt -1 lw 2
replot 121.417619 lt -1 lw 2
replot 121.417619 lt -1 lw 2
replot 144.350208 lt -1 lw 2
replot 144.350208 lt -1 lw 2
replot 169.297961 lt -1 lw 2
replot 169.297961 lt -1 lw 2
replot 196.256627 lt -1 lw 2
replot 196.256627 lt -1 lw 2
replot 225.223357 lt -1 lw 2
replot 225.223357 lt -1 lw 2
replot 256.196175 lt -1 lw 2
replot 256.196175 lt -1 lw 2
replot 289.173678 lt -1 lw 2
replot 289.173678 lt -1 lw 2
replot 324.154846 lt -1 lw 2
replot 324.154846 lt -1 lw 2
replot 361.138923 lt -1 lw 2
replot 361.138923 lt -1 lw 2
replot 400.125338 lt -1 lw 2
replot 400.125338 lt -1 lw 2
replot 441.113655 lt -1 lw 2
replot 441.113655 lt -1 lw 2
replot 484.103534 lt -1 lw 2
replot 484.103534 lt -1 lw 2
replot 529.094708 lt -1 lw 2
replot 529.094708 lt -1 lw 2
replot 576.086965 lt -1 lw 2
replot 576.086965 lt -1 lw 2
replot 625.080135 lt -1 lw 2
replot 625.080135 lt -1 lw 2
replot 676.074079 lt -1 lw 2
replot 676.074079 lt -1 lw 2
replot 729.068685 lt -1 lw 2
replot 729.068685 lt -1 lw 2
replot 784.063860 lt -1 lw 2
replot 784.063860 lt -1 lw 2
replot 841.059526 lt -1 lw 2
replot 841.059526 lt -1 lw 2
replot 900.055620 lt -1 lw 2
replot 900.055620 lt -1 lw 2
replot 961.052085 lt -1 lw 2
replot 961.052085 lt -1 lw 2
replot 1024.048877 lt -1 lw 2
replot 1024.048877 lt -1 lw 2
replot 1089.045957 lt -1 lw 2
replot 1089.045957 lt -1 lw 2
replot 1156.043291 lt -1 lw 2
replot 1156.043291 lt -1 lw 2
replot 1225.040852 lt -1 lw 2
replot 1225.040852 lt -1 lw 2
replot 1296.038612 lt -1 lw 2
replot 1296.038612 lt -1 lw 2
replot 1369.037930 lt -1 lw 2
replot 1369.037930 lt -1 lw 2
replot 1444.035928 lt -1 lw 2
replot 1444.035928 lt -1 lw 2
replot 1521.656516 lt -1 lw 2
replot 1521.656516 lt -1 lw 2
replot 1600.639749 lt -1 lw 2
replot 1600.639749 lt -1 lw 2
# Potential
replot '-' with filledcurves y1=-22.000000 lt 1 
 -180.000000 -20.000000
 -179.000000 -19.987817
 -178.000000 -19.951281
 -177.000000 -19.890438
 -176.000000 -19.805361
 -175.000000 -19.696155
 -174.000000 -19.562952
 -173.000000 -19.405915
 -172.000000 -19.225234
 -171.000000 -19.021130
 -170.000000 -18.793852
 -169.000000 -18.543677
 -168.000000 -18.270909
 -167.000000 -17.975881
 -166.000000 -17.658952
 -165.000000 -17.320508
 -164.000000 -16.960962
 -163.000000 -16.580751
 -162.000000 -16.180340
 -161.000000 -15.760215
 -160.000000 -15.320889
 -159.000000 -14.862897
 -158.000000 -14.386796
 -157.000000 -13.893167
 -156.000000 -13.382612
 -155.000000 -12.855752
 -154.000000 -12.313230
 -153.000000 -11.755705
 -152.000000 -11.183858
 -151.000000 -10.598385
 -150.000000 -10.000000
 -149.000000 -9.389431
 -148.000000 -8.767423
 -147.000000 -8.134733
 -146.000000 -7.492132
 -145.000000 -6.840403
 -144.000000 -6.180340
 -143.000000 -5.512747
 -142.000000 -4.838438
 -141.000000 -4.158234
 -140.000000 -3.472964
 -139.000000 -2.783462
 -138.000000 -2.090569
 -137.000000 -1.395129
 -136.000000 -0.697990
 -135.000000 0.000000
 -134.000000 0.697990
 -133.000000 1.395129
 -132.000000 2.090569
 -131.000000 2.783462
 -130.000000 3.472964
 -129.000000 4.158234
 -128.000000 4.838438
 -127.000000 5.512747
 -126.000000 6.180340
 -125.000000 6.840403
 -124.000000 7.492132
 -123.000000 8.134733
 -122.000000 8.767423
 -121.000000 9.389431
 -120.000000 10.000000
 -119.000000 10.598385
 -118.000000 11.183858
 -117.000000 11.755705
 -116.000000 12.313230
 -115.000000 12.855752
 -114.000000 13.382612
 -113.000000 13.893167
 -112.000000 14.386796
 -111.000000 14.862897
 -110.000000 15.320889
 -109.000000 15.760215
 -108.000000 16.180340
 -107.000000 16.580751
 -106.000000 16.960962
 -105.000000 17.320508
 -104.000000 17.658952
 -103.000000 17.975881
 -102.000000 18.270909
 -101.000000 18.543677
 -100.000000 18.793852
 -99.000000 19.021130
 -98.000000 19.225234
 -97.000000 19.405915
 -96.000000 19.562952
 -95.000000 19.696155
 -94.000000 19.805361
 -93.000000 19.890438
 -92.000000 19.951281
 -91.000000 19.987817
 -90.000000 20.000000
 -89.000000 19.987817
 -88.000000 19.951281
 -87.000000 19.890438
 -86.000000 19.805361
 -85.000000 19.696155
 -84.000000 19.562952
 -83.000000 19.405915
 -82.000000 19.225234
 -81.000000 19.021130
 -80.000000 18.793852
 -79.000000 18.543677
 -78.000000 18.270909
 -77.000000 17.975881
 -76.000000 17.658952
 -75.000000 17.320508
 -74.000000 16.960962
 -73.000000 16.580751
 -72.000000 16.180340
 -71.000000 15.760215
 -70.000000 15.320889
 -69.000000 14.862897
 -68.000000 14.386796
 -67.000000 13.893167
 -66.000000 13.382612
 -65.000000 12.855752
 -64.000000 12.313230
 -63.000000 11.755705
 -62.000000 11.183858
 -61.000000 10.598385
 -60.000000 10.000000
 -59.000000 9.389431
 -58.000000 8.767423
 -57.000000 8.134733
 -56.000000 7.492132
 -55.000000 6.840403
 -54.000000 6.180340
 -53.000000 5.512747
 -52.000000 4.838438
 -51.000000 4.158234
 -50.000000 3.472964
 -49.000000 2.783462
 -48.000000 2.090569
 -47.000000 1.395129
 -46.000000 0.697990
 -45.000000 -0.000000
 -44.000000 -0.697990
 -43.000000 -1.395129
 -42.000000 -2.090569
 -41.000000 -2.783462
 -40.000000 -3.472964
 -39.000000 -4.158234
 -38.000000 -4.838438
 -37.000000 -5.512747
 -36.000000 -6.180340
 -35.000000 -6.840403
 -34.000000 -7.492132
 -33.000000 -8.134733
 -32.000000 -8.767423
 -31.000000 -9.389431
 -30.000000 -10.000000
 -29.000000 -10.598385
 -28.000000 -11.183858
 -27.000000 -11.755705
 -26.000000 -12.313230
 -25.000000 -12.855752
 -24.000000 -13.382612
 -23.000000 -13.893167
 -22.000000 -14.386796
 -21.000000 -14.862897
 -20.000000 -15.320889
 -19.000000 -15.760215
 -18.000000 -16.180340
 -17.000000 -16.580751
 -16.000000 -16.960962
 -15.000000 -17.320508
 -14.000000 -17.658952
 -13.000000 -17.975881
 -12.000000 -18.270909
 -11.000000 -18.543677
 -10.000000 -18.793852
 -9.000000 -19.021130
 -8.000000 -19.225234
 -7.000000 -19.405915
 -6.000000 -19.562952
 -5.000000 -19.696155
 -4.000000 -19.805361
 -3.000000 -19.890438
 -2.000000 -19.951281
 -1.000000 -19.987817
 0.000000 -20.000000
 1.000000 -19.987817
 2.000000 -19.951281
 3.000000 -19.890438
 4.000000 -19.805361
 5.000000 -19.696155
 6.000000 -19.562952
 7.000000 -19.405915
 8.000000 -19.225234
 9.000000 -19.021130
 10.000000 -18.793852
 11.000000 -18.543677
 12.000000 -18.270909
 13.000000 -17.975881
 14.000000 -17.658952
 15.000000 -17.320508
 16.000000 -16.960962
 17.000000 -16.580751
 18.000000 -16.180340
 19.000000 -15.760215
 20.000000 -15.320889
 21.000000 -14.862897
 22.000000 -14.386796
 23.000000 -13.893167
 24.000000 -13.382612
 25.000000 -12.855752
 26.000000 -12.313230
 27.000000 -11.755705
 28.000000 -11.183858
 29.000000 -10.598385
 30.000000 -10.000000
 31.000000 -9.389431
 32.000000 -8.767423
 33.000000 -8.134733
 34.000000 -7.492132
 35.000000 -6.840403
 36.000000 -6.180340
 37.000000 -5.512747
 38.000000 -4.838438
 39.000000 -4.158234
 40.000000 -3.472964
 41.000000 -2.783462
 42.000000 -2.090569
 43.000000 -1.395129
 44.000000 -0.697990
 45.000000 -0.000000
 46.000000 0.697990
 47.000000 1.395129
 48.000000 2.090569
 49.000000 2.783462
 50.000000 3.472964
 51.000000 4.158234
 52.000000 4.838438
 53.000000 5.512747
 54.000000 6.180340
 55.000000 6.840403
 56.000000 7.492132
 57.000000 8.134733
 58.000000 8.767423
 59.000000 9.389431
 60.000000 10.000000
 61.000000 10.598385
 62.000000 11.183858
 63.000000 11.755705
 64.000000 12.313230
 65.000000 12.855752
 66.000000 13.382612
 67.000000 13.893167
 68.000000 14.386796
 69.000000 14.862897
 70.000000 15.320889
 71.000000 15.760215
 72.000000 16.180340
 73.000000 16.580751
 74.000000 16.960962
 75.000000 17.320508
 76.000000 17.658952
 77.000000 17.975881
 78.000000 18.270909
 79.000000 18.543677
 80.000000 18.793852
 81.000000 19.021130
 82.000000 19.225234
 83.000000 19.405915
 84.000000 19.562952
 85.000000 19.696155
 86.000000 19.805361
 87.000000 19.890438
 88.000000 19.951281
 89.000000 19.987817
 90.000000 20.000000
 91.000000 19.987817
 92.000000 19.951281
 93.000000 19.890438
 94.000000 19.805361
 95.000000 19.696155
 96.000000 19.562952
 97.000000 19.405915
 98.000000 19.225234
 99.000000 19.021130
 100.000000 18.793852
 101.000000 18.543677
 102.000000 18.270909
 103.000000 17.975881
 104.000000 17.658952
 105.000000 17.320508
 106.000000 16.960962
 107.000000 16.580751
 108.000000 16.180340
 109.000000 15.760215
 110.000000 15.320889
 111.000000 14.862897
 112.000000 14.386796
 113.000000 13.893167
 114.000000 13.382612
 115.000000 12.855752
 116.000000 12.313230
 117.000000 11.755705
 118.000000 11.183858
 119.000000 10.598385
 120.000000 10.000000
 121.000000 9.389431
 122.000000 8.767423
 123.000000 8.134733
 124.000000 7.492132
 125.000000 6.840403
 126.000000 6.180340
 127.000000 5.512747
 128.000000 4.838438
 129.000000 4.158234
 130.000000 3.472964
 131.000000 2.783462
 132.000000 2.090569
 133.000000 1.395129
 134.000000 0.697990
 135.000000 0.000000
 136.000000 -0.697990
 137.000000 -1.395129
 138.000000 -2.090569
 139.000000 -2.783462
 140.000000 -3.472964
 141.000000 -4.158234
 142.000000 -4.838438
 143.000000 -5.512747
 144.000000 -6.180340
 145.000000 -6.840403
 146.000000 -7.492132
 147.000000 -8.134733
 148.000000 -8.767423
 149.000000 -9.389431
 150.000000 -10.000000
 151.000000 -10.598385
 152.000000 -11.183858
 153.000000 -11.755705
 154.000000 -12.313230
 155.000000 -12.855752
 156.000000 -13.382612
 157.000000 -13.893167
 158.000000 -14.386796
 159.000000 -14.862897
 160.000000 -15.320889
 161.000000 -15.760215
 162.000000 -16.180340
 163.000000 -16.580751
 164.000000 -16.960962
 165.000000 -17.320508
 166.000000 -17.658952
 167.000000 -17.975881
 168.000000 -18.270909
 169.000000 -18.543677
 170.000000 -18.793852
 171.000000 -19.021130
 172.000000 -19.225234
 173.000000 -19.405915
 174.000000 -19.562952
 175.000000 -19.696155
 176.000000 -19.805361
 177.000000 -19.890438
 178.000000 -19.951281
 179.000000 -19.987817
 180.000000 -20.000000
 181.000000 -19.987817
 182.000000 -19.951281
 183.000000 -19.890438
 184.000000 -19.805361
 185.000000 -19.696155
 186.000000 -19.562952
 187.000000 -19.405915
 188.000000 -19.225234
 189.000000 -19.021130
 190.000000 -18.793852
 191.000000 -18.543677
 192.000000 -18.270909
 193.000000 -17.975881
 194.000000 -17.658952
 195.000000 -17.320508
 196.000000 -16.960962
 197.000000 -16.580751
 198.000000 -16.180340
 199.000000 -15.760215
 200.000000 -15.320889
 201.000000 -14.862897
 202.000000 -14.386796
 203.000000 -13.893167
 204.000000 -13.382612
 205.000000 -12.855752
 206.000000 -12.313230
 207.000000 -11.755705
 208.000000 -11.183858
 209.000000 -10.598385
 210.000000 -10.000000
 211.000000 -9.389431
 212.000000 -8.767423
 213.000000 -8.134733
 214.000000 -7.492132
 215.000000 -6.840403
 216.000000 -6.180340
 217.000000 -5.512747
 218.000000 -4.838438
 219.000000 -4.158234
 220.000000 -3.472964
 221.000000 -2.783462
 222.000000 -2.090569
 223.000000 -1.395129
 224.000000 -0.697990
 225.000000 -0.000000
 226.000000 0.697990
 227.000000 1.395129
 228.000000 2.090569
 229.000000 2.783462
 230.000000 3.472964
 231.000000 4.158234
 232.000000 4.838438
 233.000000 5.512747
 234.000000 6.180340
 235.000000 6.840403
 236.000000 7.492132
 237.000000 8.134733
 238.000000 8.767423
 239.000000 9.389431
 240.000000 10.000000
 241.000000 10.598385
 242.000000 11.183858
 243.000000 11.755705
 244.000000 12.313230
 245.000000 12.855752
 246.000000 13.382612
 247.000000 13.893167
 248.000000 14.386796
 249.000000 14.862897
 250.000000 15.320889
 251.000000 15.760215
 252.000000 16.180340
 253.000000 16.580751
 254.000000 16.960962
 255.000000 17.320508
 256.000000 17.658952
 257.000000 17.975881
 258.000000 18.270909
 259.000000 18.543677
 260.000000 18.793852
 261.000000 19.021130
 262.000000 19.225234
 263.000000 19.405915
 264.000000 19.562952
 265.000000 19.696155
 266.000000 19.805361
 267.000000 19.890438
 268.000000 19.951281
 269.000000 19.987817
 270.000000 20.000000
 271.000000 19.987817
 272.000000 19.951281
 273.000000 19.890438
 274.000000 19.805361
 275.000000 19.696155
 276.000000 19.562952
 277.000000 19.405915
 278.000000 19.225234
 279.000000 19.021130
 280.000000 18.793852
 281.000000 18.543677
 282.000000 18.270909
 283.000000 17.975881
 284.000000 17.658952
 285.000000 17.320508
 286.000000 16.960962
 287.000000 16.580751
 288.000000 16.180340
 289.000000 15.760215
 290.000000 15.320889
 291.000000 14.862897
 292.000000 14.386796
 293.000000 13.893167
 294.000000 13.382612
 295.000000 12.855752
 296.000000 12.313230
 297.000000 11.755705
 298.000000 11.183858
 299.000000 10.598385
 300.000000 10.000000
 301.000000 9.389431
 302.000000 8.767423
 303.000000 8.134733
 304.000000 7.492132
 305.000000 6.840403
 306.000000 6.180340
 307.000000 5.512747
 308.000000 4.838438
 309.000000 4.158234
 310.000000 3.472964
 311.000000 2.783462
 312.000000 2.090569
 313.000000 1.395129
 314.000000 0.697990
 315.000000 0.000000
 316.000000 -0.697990
 317.000000 -1.395129
 318.000000 -2.090569
 319.000000 -2.783462
 320.000000 -3.472964
 321.000000 -4.158234
 322.000000 -4.838438
 323.000000 -5.512747
 324.000000 -6.180340
 325.000000 -6.840403
 326.000000 -7.492132
 327.000000 -8.134733
 328.000000 -8.767423
 329.000000 -9.389431
 330.000000 -10.000000
 331.000000 -10.598385
 332.000000 -11.183858
 333.000000 -11.755705
 334.000000 -12.313230
 335.000000 -12.855752
 336.000000 -13.382612
 337.000000 -13.893167
 338.000000 -14.386796
 339.000000 -14.862897
 340.000000 -15.320889
 341.000000 -15.760215
 342.000000 -16.180340
 343.000000 -16.580751
 344.000000 -16.960962
 345.000000 -17.320508
 346.000000 -17.658952
 347.000000 -17.975881
 348.000000 -18.270909
 349.000000 -18.543677
 350.000000 -18.793852
 351.000000 -19.021130
 352.000000 -19.225234
 353.000000 -19.405915
 354.000000 -19.562952
 355.000000 -19.696155
 356.000000 -19.805361
 357.000000 -19.890438
 358.000000 -19.951281
 359.000000 -19.987817
 360.000000 -20.000000
end